wavelength(nm)	 n			 k
206.666666666667	 1.09231792490381	 3.01052461714374
207.357858870395	 1.10136637807475	 3.02129246055607
208.05368994352	 1.11049924858493	 3.03269002804026
208.754206743264	 1.11976826670991	 3.0446478885311
209.459456760053	 1.12919951197628	 3.05712144037923
210.16948812825	 1.13883859821274	 3.07005750205333
210.884349637109	 1.14871977688068	 3.08343264092774
211.604090741946	 1.15883938596537	 3.09719361923902
212.328761575548	 1.16924519110896	 3.11132356303225
213.058412959811	 1.17990315585557	 3.12580732642611
213.793096417621	 1.19086031891377	 3.14062868502479
214.532864184985	 1.20211039186274	 3.15578345223274
215.277769223408	 1.2136608927334	 3.17127299303284
216.027883178547	 1.22554117056649	 3.18712268770377
216.783224734778	 1.23780356650455	 3.20333545424306
217.543866928632	 1.25046473115815	 3.21996299202803
218.309865752706	 1.26361978094117	 3.23701022471762
219.081277991016	 1.27735101166809	 3.25450855226452
219.85816123302	 1.2917908458825	 3.27243390875386
220.640573887955	 1.30708850465305	 3.29078719720779
221.428575199478	 1.3234255895545	 3.30947953954136
222.222225260611	 1.34099205633087	 3.32835694816201
223.021585029028	 1.35992722639464	 3.34723796790536
223.826716342656	 1.38039503571373	 3.36581195378598
224.63768193562	 1.40242717519988	 3.3837407772422
225.454545454545	 1.42601335072179	 3.40063434408339
226.277371475201	 1.45102030659333	 3.41604448507959
227.106225519521	 1.47714086655411	 3.42959842182095
227.941174072997	 1.50396576191969	 3.44090292596115
228.782284602453	 1.53098444197701	 3.44974104103286
229.629625574225	 1.55757974203811	 3.45600276616302
230.483266472729	 1.5831973563006	 3.45977078603271
231.343277819466	 1.60697332453633	 3.46116498195505
232.209731192436	 1.62870144937405	 3.46073240366467
233.082699245997	 1.64764443716166	 3.45887726332622
233.962255731178	 1.6635140165342	 3.45623766356936
234.848475516445	 1.67626358695551	 3.45351416053036
235.741434608948	 1.68596103630304	 3.45144380089786
236.641231710473	 1.69262314776928	 3.45056126972322
237.54790226811	 1.69653809610742	 3.45144045670854
238.461547208256	 1.69830304365933	 3.45462497102708
239.38224731519	 1.69822196694338	 3.46038400402792
240.310084625661	 1.69666185411814	 3.46887032318099
241.245142453249	 1.69424507019516	 3.48031121019996
242.187505413313	 1.69128749255594	 3.49467495952381
243.137259448505	 1.68821652296038	 3.51199020989383
244.094491854908	 1.68524897050654	 3.53211897509507
245.059291308776	 1.6828123318021	 3.5550607534991
246.031747893922	 1.68097231109313	 3.58066579305618
247.011953129757	 1.67999823156042	 3.60893249068929
248	 1.68000874310857	 3.63956441944612
248.995982982084	 1.68115377338802	 3.67277526083319
249.99999807727	 1.68359435395263	 3.7084350027894
251.012142841492	 1.68743176988498	 3.74652186804199
252.03251641696	 1.69291978371887	 3.78694834604018
253.061219564531	 1.69998288617414	 3.82974440929562
254.098354696875	 1.7090719739198	 3.87490991827023
255.144025912469	 1.72024636983202	 3.92240324473896
256.198339030421	 1.73355667686337	 3.97218057436798
257.261401626173	 1.7494037303342	 4.02422827834495
258.333323068089	 1.76786615985347	 4.07864572965548
259.414214554965	 1.78920136797144	 4.13536469415711
260.50418915448	 1.8135435968899	 4.19427476781799
261.603388159549	 1.84120921213374	 4.2553556578544
262.711876084565	 1.8725419596476	 4.31872826748854
263.829797940753	 1.9076496562241	 4.38419057405577
264.95727467584	 1.94687648929435	 4.45200277978491
266.094429313903	 1.99064185466435	 4.52190840286411
267.241387000124	 2.0393059388733	 4.59421034200085
268.398275046698	 2.09352351607993	 4.6689229034747
269.565222979944	 2.15405188021396	 4.74593934652051
270.742362588647	 2.22158059003816	 4.8253933776243
271.929827973673	 2.29765627825968	 4.9069567105695
273.127755598898	 2.38339624818869	 4.99014812879003
274.336284343484	 2.48051420406613	 5.0739481442491
275.555555555556	 2.59050505662782	 5.15690952689499
276.785713107306	 2.71504643708878	 5.23674299553882
278.026903451595	 2.85490611796425	 5.31050746515646
279.27927568007	 3.01046694211919	 5.3747476194266
280.542981582866	 3.18094086533987	 5.4254386204448
281.818175709937	 3.36433475805656	 5.4587313961964
283.105015434064	 3.55742969731422	 5.47122521743955
284.4036610156	 3.75588085114814	 5.46037000594376
285.714275669	 3.95482192410542	 5.42527572319024
287.03702563121	 4.14967693562779	 5.36608036460007
288.372080231951	 4.33602540433798	 5.28398678380997
289.719611965983	 4.50999534814962	 5.18060402331955
291.079796567399	 4.66744125397572	 5.05823168791021
292.452845975742	 4.80454769972102	 4.92054657903665
293.838877168211	 4.9185107873875	 4.77258299218949
295.238108645762	 5.00829005275484	 4.62003996771225
296.650729885998	 5.0748348765286	 4.46861825514814
298.07693401032	 5.12043710676594	 4.32297077235353
299.516917871938	 5.148573909456	 4.18679038796919
300.970882146452	 5.16313499642339	 4.06226080575372
302.439031425081	 5.16790337736692	 3.95034493193812
303.921574310631	 5.16657424871957	 3.85090757446834
305.418723516305	 5.16198544018786	 3.76298998453042
306.930695967445	 5.15640935035705	 3.68531646116955
308.457712906309	 5.15128873453925	 3.61618251652236
310	 5.14751602501172	 3.5541414514105
311.557787451635	 5.14558044486734	 3.49785627040928
313.131310114896	 5.14551536308954	 3.4462048648217
314.720807612064	 5.14732127122944	 3.39836963411411
316.326524455664	 5.15092979775942	 3.353666342085
317.948710173859	 5.15621593216227	 3.31173101326309
319.587619439716	 5.16313068769499	 3.27214276653613
321.243532046577	 5.17151277774952	 3.23474021725045
322.916673884417	 5.18152550852043	 3.19925080693854
324.607335515675	 5.19294461622676	 3.1655449201821
326.315793568408	 5.20591427599499	 3.13345536157187
328.042330525229	 5.22039727308651	 3.10282898156651
329.787234879015	 5.23633007385273	 3.07362205228038
331.550801293606	 5.25383251477003	 3.04577672846053
333.333330769693	 5.27288114436171	 3.01931702341888
335.135130816084	 5.2935633850311	 2.99429683823808
336.956515626556	 5.31586024245304	 2.97092088597962
338.7978062625	 5.34023271164193	 2.94959058532426
340.659330841597	 5.36682793515235	 2.93050199333558
342.541447293027	 5.39648777907592	 2.91411756608225
344.444453569106	 5.4301081686704	 2.90104722964601
346.368722465317	 5.46912091442048	 2.89141539413808
348.31461234009	 5.51534864024392	 2.88549306210449
350.282489650344	 5.57149554722465	 2.88297816337685
352.272729181554	 5.64069905707208	 2.88244428814428
354.285714285714	 5.72648840066906	 2.88160876639468
356.3218371275	 5.83267455541472	 2.87612469793959
358.381498938968	 5.96233064371864	 2.85978782693914
360.465110283146	 6.11799945973625	 2.8236353618892
362.573091326862	 6.29969359570557	 2.75465784209579
364.705872123217	 6.50079517410855	 2.63483151306794
366.863892904071	 6.70104471078278	 2.44581261156697
369.047630569833	 6.86418439325131	 2.18197809146539
371.257494570445	 6.95162715703464	 1.86416781870635
373.493983413679	 6.94501801718303	 1.53599306954184
375.757581187127	 6.85740287924156	 1.24135914998283
378.048783785385	 6.72121604882017	 1.00286911242502
380.368099272231	 6.56689137671574	 0.819794296928747
382.716048256215	 6.41213718470857	 0.680810434905553
385.093164280247	 6.26428406174019	 0.574678612858033
387.4999942258	 6.1262006844292	 0.49329106734416
389.937098732355	 5.99912374709762	 0.43067955430743
392.405052632786	 5.88335877018147	 0.38198418034329
394.904445405374	 5.77839216275071	 0.343244267844324
397.43591201376	 5.68321532141495	 0.311346632001971
400.000012305475	 5.59639965100407	 0.284057623245615
402.597412570047	 5.51657236573018	 0.25994402324295
405.228765747508	 5.44239849659361	 0.238121125443772
407.89474196051	 5.37285678481132	 0.218152092057027
410.596029083277	 5.30725180148972	 0.199802091330512
413.333333333333	 5.2448525578949	 0.182969867975351
416.107379887041	 5.18537323964016	 0.167615703395257
418.918913520105	 5.12841319457292	 0.153692768286335
421.768699274218	 5.07394591845907	 0.141162324923182
424.657523151097	 5.02164187539547	 0.129947534743211
427.586192835242	 4.97155889780489	 0.119992541586175
430.555538446816	 4.92355190079833	 0.111190054870628
433.566449469556	 4.87746906168591	 0.103465545424302
436.619731505413	 4.8333582056665	 0.0967070909850612
439.71632246604	 4.79105901741852	 0.0908149925922274
442.857150398955	 4.7505096779263	 0.0856897550997535
446.043170058057	 4.71175116655508	 0.0812330683434152
449.27536387124	 4.67450352816796	 0.0773558110306638
452.554742950402	 4.63890845543082	 0.0739710680114477
455.882348145993	 4.60467608172338	 0.0710060798224939
459.259251148449	 4.57194461918729	 0.0683877456311644
462.686555638933	 4.54041450154798	 0.0660589496737704
466.165398491994	 4.51022070737811	 0.0639647198872407
469.69695103289	 4.48116627826714	 0.0620608505579229
473.282463420946	 4.45316036408356	 0.0603122204710829
476.923094416512	 4.42622222642692	 0.058684357742418
480.620169251321	 4.40025743707206	 0.0571512046121124
484.375010826625	 4.37528298055565	 0.0556935390460366
488.188983709816	 4.35108592725314	 0.0542944918768543
492.063495787844	 4.32767865508487	 0.052940622624216
496	 4.30507432351405	 0.0516216393661884
499.999996154539	 4.28305175947807	 0.0503321012187711
504.065032833921	 4.26185480456517	 0.0490619720307503
508.19670939375	 4.24125992512545	 0.0478089054468307
512.396678060841	 4.22115729101789	 0.0465713514110519
516.666646136179	 4.20179200358884	 0.0453449390056532
521.008378308959	 4.18281567696932	 0.0441305596969651
525.423752169129	 4.16435382907637	 0.0429262292208789
529.91454935168	 4.14653358009557	 0.0417288321830861
534.482774000248	 4.12900045721765	 0.0405449219231998
539.130445959888	 4.11200065706281	 0.0393676983362609
543.859655947346	 4.09541929983549	 0.0382012174899375
548.672568686969	 4.07926124923833	 0.037045925182237
553.571426214612	 4.06353152759145	 0.0358998073012597
558.55855136014	 4.04811169880035	 0.0347655921682395
563.636351419875	 4.03300530008337	 0.0336424068055448
568.807322031199	 4.01834022506142	 0.0325308453535392
574.074051262421	 4.00399651968169	 0.0314323447106768
579.439223931966	 3.98985227308023	 0.0303469891594082
584.905691951483	 3.97616108951555	 0.0292744687181245
590.476217291524	 3.96267534199719	 0.028217047433899
596.15386802064	 3.94952376104981	 0.0271728972160859
601.941764292905	 3.93670968768446	 0.0261423891040632
607.843148621263	 3.92410896634341	 0.0251279972927221
613.86139193489	 3.91172364816632	 0.0241300270449722
620	 3.89968403215297	 0.0231467466677176
626.262620229792	 3.8877361446023	 0.0221812896955374
632.653048911327	 3.87613866249425	 0.0212311807493809
639.175238879433	 3.8647654405594	 0.020298774397261
645.833347768834	 3.85361857028889	 0.0193830803957247
652.631587136816	 3.84269976906025	 0.0184857006715871
659.57446975803	 3.83201121784965	 0.0176056373583464
666.666661539385	 3.82142382947163	 0.0167450666991058
673.913031253112	 3.81106980972468	 0.0159036709034978
681.318661683194	 3.80095079808242	 0.0150804369186018
688.888907138213	 3.791068917204	 0.0142756572443884
696.629224680181	 3.78129374076593	 0.0134914143908982
704.545458363107	 3.77175845165927	 0.0127273528204872
712.643674255	 3.7623321669748	 0.0119833919294862
720.930220566291	 3.75314897364416	 0.0112594787336177
729.411744246434	 3.74407680070809	 0.0105565407524379
738.095261139665	 3.7352506166021	 0.00987443769086065
746.987966827357	 3.72653793388903	 0.00921351130674595
756.09756757077	 3.71807394639161	 0.00857392876968654
765.432096512429	 3.70959067634998	 0.00795653801839596
774.9999884516	 3.70135839804865	 0.00736081110628936
784.810105265572	 3.69337865070967	 0.00678701050966973
794.87182402752	 3.6853817529009	 0.00623585337799896
805.194825140094	 3.67763948621801	 0.00570719367026848
815.78948392102	 3.6700172910475	 0.00520133797352852
826.666666666667	 3.66251577782503	 0.00471861443328216
837.837827040211	 3.65513581093824	 0.00425907570865338
849.315046302193	 3.6478781195153	 0.00382290742985135
861.111076893631	 3.64074329573959	 0.00341042986509692
873.239463010825	 3.63386970784655	 0.00302157222763445
885.71430079791	 3.62698315288475	 0.00265675339328167
898.550727742481	 3.62022172127272	 0.00231615643037268
911.764696291986	 3.61372439654837	 0.0019997375010993
925.373111277866	 3.6073539403635	 0.00170776144923711
939.393902065779	 3.60097238019246	 0.00144058305780397
953.846188833024	 3.59485768436958	 0.001197989000438
968.75002165325	 3.58873246022598	 0.000980304357977361
984.126991575688	 3.5828760114227	 0.000787426044760414
999.999992309078	 3.57700998876993	 0.000619246223816978
1016.3934187875	 3.57127427342668	 0.000475348537802959
1033.33329227236	 3.56580990500061	 0.00035498246021977
1050.84750433826	 3.5603370216148	 0.000257026224208555
1068.9655480005	 3.55513712411791	 0.000179768023661177
1087.71931189469	 3.54992961214047	 0.000120998170279595
1107.14285242922	 3.54485542594313	 7.80849965841097E-05
1127.27270283975	 3.54005643886219	 4.81348286959024E-05
1148.14810252484	 3.53525107252036	 2.82469266662529E-05
1169.81138390297	 3.53058071042643	 1.57268749994261E-05
1192.30773604128	 3.52604588894834	 8.28279406326616E-06
1215.68629724253	 3.52164740246139	 4.11455573031939E-06
1240	 3.51724327988848	 1.92334685328752E-06
1265.30609782265	 3.51311827407363	 8.43989983708042E-07
1291.66669553767	 3.50898841909487	 3.46271694857545E-07
1319.14893951606	 3.50499641189718	 0
1347.82606250622	 3.50114272400317	 0
1377.77781427643	 3.49742767630042	 0
1409.09091672621	 3.49370867819055	 0
1441.86044113258	 3.49012890247042	 0
1476.19052227933	 3.48668891471733	 0
1512.19513514154	 3.48338912907013	 0
1549.9999769032	 3.48008621459802	 0
1589.74364805504	 3.47692389163611	 0
1631.57896784204	 3.47375882713511	 0
1675.67565408042	 3.4707347243743	 0
1722.22215378726	 3.46785236463264	 0
1771.42860159582	 3.46511182640365	 0
1823.52939258397	 3.46236911898149	 0
1878.78780413156	 3.4597688169918	 0
1937.5000433065	 3.45716642126274	 0
1999.99998461816	 3.4547069947561	 0
2066.66658454472	 3.45239042866476	 0
2137.93109600099	 3.45007244531614	 0
2214.28570485845	 3.4478978428322	 0
2296.29620504968	 3.4457220063375	 0
2384.61547208256	 3.44368991141677	 0
2480	 3.44165661666425	 0
2583.33339107533	 3.43976740183803	 0
2695.65212501245	 3.43802264315176	 0
2818.18183345243	 3.43627699856995	 0
2952.38104455866	 3.43467610282767	 0
3099.9999538064	 3.43307446056301	 0
3263.15793568408	 3.43161769765925	 0
3444.44430757452	 3.4303061377032	 0
3647.05878516795	 3.42884819866416	 0
3875.000086613	 3.42768137312121	 0
4133.33316908943	 3.426514289402	 0
4428.5714097169	 3.42534666882576	 0
4769.23094416512	 3.42432472644656	 0
5166.66678215067	 3.42344859272471	 0
5636.36366690486	 3.42257209540281	 0
6199.9999076128	 3.42184155591533	 0
